time,theta
0.000,1.5707963267948966
0.001,1.5708047267948966
0.002,1.5708215266508965
0.003,1.5708467262188988
0.004,1.5708803253549066
0.005,1.5709223239149217
0.006,1.5709727217549398
0.007,1.571031518730946
0.008,1.5710987146989073
0.009,1.5711743095147648
0.010,1.5712583030344245
0.011,1.5713506951137457
0.012,1.5714514856085298
0.013,1.5715606743745059
0.014,1.5716782612673164
0.015,1.5718042461425006
0.016,1.5719386288554769
0.017,1.5720814092615236
0.018,1.5722325872157596
0.019,1.5723921625731212
0.020,1.57256013518834
0.021,1.5727365049159183
0.022,1.5729212716101026
0.023,1.5731144351248578
0.024,1.573315995313837
0.025,1.5735259520303528
0.026,1.5737443051273459
0.027,1.5739710544573517
0.028,1.5742061998724672
0.029,1.5744497412243152
0.030,1.5747016783640078
0.031,1.5749620111421077
0.032,1.5752307394085898
0.033,1.5755078630127999
0.034,1.575793381803412
0.035,1.5760872956283856
0.036,1.5763896043349204
0.037,1.57670030776941
0.038,1.5770194057773945
0.039,1.577346898203512
0.040,1.5776827848914465
0.041,1.5780270656838786
0.042,1.5783797404224305
0.043,1.5787408089476125
0.044,1.5791102710987672
0.045,1.579488126714012
0.046,1.5798743756301807
0.047,1.580269017682764
0.048,1.580672052705848
0.049,1.5810834805320508
0.050,1.5815033009924602
0.051,1.5819315139165668
0.052,1.5823681191321985
0.053,1.5828131164654518
0.054,1.583266505740622
0.055,1.583728286780134
0.056,1.5841984594044682
0.057,1.5846770234320882
0.058,1.5851639786793654
0.059,1.5856593249605035
0.060,1.5861630620874603
0.061,1.5866751898698683
0.062,1.587195708114956
0.063,1.587724616627464
0.064,1.5882619152095638
0.065,1.588807603660773
0.066,1.5893616817778686
0.067,1.5899241493548009
0.068,1.5904950061826042
0.069,1.5910742520493077
0.070,1.591661886739844
0.071,1.5922579100359562
0.072,1.5928623217161042
0.073,1.5934751215553693
0.074,1.5940963093253577
0.075,1.5947258847941024
0.076,1.5953638477259635
0.077,1.5960101978815275
0.078,1.5966649350175055
0.079,1.5973280588866294
0.080,1.597999569237547
0.081,1.5986794658147159
0.082,1.5993677483582955
0.083,1.600064416604039
0.084,1.6007694702831816
0.085,1.6014829091223302
0.086,1.6022047328433493
0.087,1.6029349411632472
0.088,1.6036735337940595
0.089,1.604420510442733
0.090,1.6051758708110058
0.091,1.6059396145952884
0.092,1.6067117414865424
0.093,1.6074922511701568
0.094,1.6082811433258253
0.095,1.6090784176274198
0.096,1.6098840737428644
0.097,1.6106981113340069
0.098,1.6115205300564894
0.099,1.6123513295596172
0.100,1.613190509486227
0.101,1.6140380694725527
0.102,1.6148940091480906
0.103,1.6157583281354633
0.104,1.6166310260502819
0.105,1.6175121025010062
0.106,1.618401557088805
0.107,1.6192993894074144
0.108,1.620205599042993
0.109,1.6211201855739794
0.110,1.6220431485709443
0.111,1.6229744875964447
0.112,1.6239142022048738
0.113,1.624862291942312
0.114,1.625818756346374
0.115,1.6267835949460576
0.116,1.6277568072615882
0.117,1.6287383928042634
0.118,1.6297283510762959
0.119,1.6307266815706556
0.120,1.631733383770909
0.121,1.6327484571510584
0.122,1.6337719011753797
0.123,1.6348037152982575
0.124,1.6358438989640205
0.125,1.6368924516067747
0.126,1.6379493726502348
0.127,1.639014661507555
0.128,1.640088317581158
0.129,1.6411703402625633
0.130,1.642260728932212
0.131,1.6433594829592935
0.132,1.6444666017015677
0.133,1.6455820845051876
0.134,1.6467059307045204
0.135,1.647838139621966
0.136,1.6489787105677753
0.137,1.6501276428398677
0.138,1.651284935723644
0.139,1.6524505884918026
0.140,1.65362460040415
0.141,1.6548069707074127
0.142,1.6559976986350462
0.143,1.6571967834070436
0.144,1.6584042242297419
0.145,1.6596200202956275
0.146,1.66084417078314
0.147,1.6620766748564748
0.148,1.6633175316653839
0.149,1.6645667403449755
0.150,1.665824300015513
0.151,1.667090209782211
0.152,1.6683644687350305
0.153,1.669647075948474
0.154,1.6709380304813772
0.155,1.6722373313767
0.156,1.6735449776613172
0.157,1.6748609683458053
0.158,1.676185302424231
0.159,1.6775179788739354
0.160,1.6788589966553185
0.161,1.6802083547116216
0.162,1.6815660519687088
0.163,1.6829320873348461
0.164,1.6843064597004802
0.165,1.6856891679380153
0.166,1.6870802109015879
0.167,1.6884795874268415
0.168,1.6898872963306986
0.169,1.6913033364111318
0.170,1.6927277064469342
0.171,1.694160405197486
0.172,1.6956014314025225
0.173,1.697050783781899
0.174,1.6985084610353547
0.175,1.6999744618422745
0.176,1.7014487848614506
0.177,1.7029314287308412
0.178,1.7044223920673296
0.179,1.705921673466479
0.180,1.7074292715022894
0.181,1.7089451847269497
0.182,1.7104694116705903
0.183,1.712001950841034
0.184,1.7135428007235447
0.185,1.7150919597805756
0.186,1.7166494264515144
0.187,1.7182151991524293
0.188,1.719789276275811
0.189,1.7213716561903152
0.190,1.7229623372405025
0.191,1.7245613177465775
0.192,1.7261685960041255
0.193,1.7277841702838488
0.194,1.7294080388313002
0.195,1.731040199866617
0.196,1.7326806515842508
0.197,1.7343293921526985
0.198,1.7359864197142298
0.199,1.7376517323846143
0.200,1.7393253282528462
0.201,1.7410072053808685
0.202,1.7426973618032953
0.203,1.7443957955271316
0.204,1.7461025045314937
0.205,1.747817486767326
0.206,1.7495407401571166
0.207,1.7512722625946133
0.208,1.7530120519445356
0.209,1.754760106042286
0.210,1.7565164226936607
0.211,1.7582809996745579
0.212,1.7600538347306838
0.213,1.7618349255772587
0.214,1.763624269898721
0.215,1.7654218653484288
0.216,1.7672277095483606
0.217,1.769041800088815
0.218,1.7708641345281075
0.219,1.772694710392267
0.220,1.7745335251747298
0.221,1.7763805763360334
0.222,1.7782358613035065
0.223,1.7800993774709595
0.224,1.7819711221983725
0.225,1.7838510928115818
0.226,1.7857392866019652
0.227,1.787635700826125
0.228,1.78954033270557
0.229,1.7914531794263955
0.230,1.7933742381389624
0.231,1.795303505957574
0.232,1.7972409799601514
0.233,1.7991866571879078
0.234,1.8011405346450202
0.235,1.8031026092983
0.236,1.8050728780768628
0.237,1.8070513378717954
0.238,1.8090379855358214
0.239,1.8110328178829662
0.240,1.813035831688219
0.241,1.8150470236871934
0.242,1.8170663905757884
0.243,1.819093929009845
0.244,1.8211296356048017
0.245,1.823173506935351
0.246,1.8252255395350907
0.247,1.8272857298961758
0.248,1.8293540744689682
0.249,1.8314305696616846
0.250,1.833515211840043
0.251,1.8356079973269077
0.252,1.8377089224019318
0.253,1.8398179833011996
0.254,1.8419351762168654
0.255,1.844060497296793
0.256,1.8461939426441916
0.257,1.8483355083172504
0.258,1.8504851903287727
0.259,1.8526429846458072
0.260,1.8548088871892783
0.261,1.8569828938336141
0.262,1.8591650004063733
0.263,1.8613552026878706
0.264,1.8635534964107998
0.265,1.865759877259856
0.266,1.8679743408713554
0.267,1.870196882832854
0.268,1.8724274986827645
0.269,1.8746661839099719
0.270,1.8769129339534465
0.271,1.8791677442018562
0.272,1.8814306099931768
0.273,1.8837015266143005
0.274,1.8859804893006433
0.275,1.8882674932357504
0.276,1.8905625335508993
0.277,1.8928656053247026
0.278,1.8951767035827083
0.279,1.8974958232969985
0.280,1.899822959385787
0.281,1.9021581067130142
0.282,1.904501260087942
0.283,1.9068524142647454
0.284,1.9092115639421035
0.285,1.9115787037627885
0.286,1.9139538283132533
0.287,1.9163369321232175
0.288,1.918728009665251
0.289,1.9211270553543573
0.290,1.9235340635475544
0.291,1.9259490285434542
0.292,1.9283719445818401
0.293,1.9308028058432438
0.294,1.9332416064485194
0.295,1.9356883404584166
0.296,1.938143001873153
0.297,1.9406055846319825
0.298,1.9430760826127653
0.299,1.9455544896315335
0.300,1.9480407994420572
0.301,1.9505350057354078
0.302,1.95303710213952
0.303,1.9555470822187533
0.304,1.95806493947345
0.305,1.9605906673394937
0.306,1.9631242591878648
0.307,1.9656657083241957
0.308,1.9682150079883234
0.309,1.9707721513538414
0.310,1.9733371315276498
0.311,1.9759099415495038
0.312,1.9784905743915615
0.313,1.9810790229579291
0.314,1.9836752800842057
0.315,1.9862793385370257
0.316,1.988891191013601
0.317,1.9915108301412607
0.318,1.9941382484769905
0.319,1.996773438506969
0.320,1.999416392646105
0.321,2.0020671032375708
0.322,2.004725562552337
0.323,2.007391762788703
0.324,2.01006569607183
0.325,2.0127473544532677
0.326,2.0154367299104843
0.327,2.018133814346393
0.328,2.020838599588878
0.329,2.023551077390318
0.330,2.0262712394271105
0.331,2.0289990772991935
0.332,2.0317345825295656
0.333,2.034477746563808
0.334,2.037228560769601
0.335,2.0399870164362413
0.336,2.042753104774161
0.337,2.0455268169144407
0.338,2.0483081439083244
0.339,2.051097076726733
0.340,2.053893606259776
0.341,2.0566977233162653
0.342,2.0595094186232212
0.343,2.062328682825386
0.344,2.0651555064847305
0.345,2.0679898800799617
0.346,2.0708317940060303
0.347,2.0736812385736365
0.348,2.076538204008735
0.349,2.0794026804520396
0.350,2.0822746579585267
0.351,2.0851541264969384
0.352,2.0880410759492856
0.353,2.0909354961103483
0.354,2.0938373766871776
0.355,2.0967467072985952
0.356,2.0996634774746945
0.357,2.1025876766563396
0.358,2.1055192941946634
0.359,2.108458319350567
0.360,2.111404741294218
0.361,2.114358549104546
0.362,2.117319731768743
0.363,2.120288278181758
0.364,2.1232641771457947
0.365,2.1262474173698083
0.366,2.1292379874690006
0.367,2.132235875964318
0.368,2.135241071281946
0.369,2.138253561752805
0.370,2.141273335612048
0.371,2.1443003809985552
0.372,2.1473346859544304
0.373,2.1503762384244975
0.374,2.153425026255796
0.375,2.156481037197079
0.376,2.159544258898308
0.377,2.1626146789101512
0.378,2.165692284683481
0.379,2.1687770635688723
0.380,2.171869002816099
0.381,2.174968089573634
0.382,2.178074310888149
0.383,2.181187653704013
0.384,2.1843081048627946
0.385,2.1874356511027617
0.386,2.190570279058385
0.387,2.19371197525984
0.388,2.1968607261325106
0.389,2.2000165179964952
0.390,2.203179337066111
0.391,2.2063491694494015
0.392,2.2095260011476445
0.393,2.212709818054861
0.394,2.2159006059573256
0.395,2.219098350533079
0.396,2.2223030373514385
0.397,2.2255146518725173
0.398,2.2287331794467353
0.399,2.23195860531434
0.400,2.235190914604925
0.401,2.23843009233695
0.402,2.241676123417265
0.403,2.244928992640635
0.404,2.2481886846892647
0.405,2.251455184132329
0.406,2.2547284754255026
0.407,2.258008542910493
0.408,2.2612953708145755
0.409,2.2645889432501316
0.410,2.267889244214186
0.411,2.271196257587952
0.412,2.2745099671363738
0.413,2.2778303565076747
0.414,2.2811574092329074
0.415,2.284491108725506
0.416,2.287831438280842
0.417,2.2911783810757833
0.418,2.294531920168255
0.419,2.297892038496805
0.420,2.3012587188801708
0.421,2.304631944016852
0.422,2.3080116964846833
0.423,2.311397958740415
0.424,2.3147907131192915
0.425,2.318189941834639
0.426,2.321595626977453
0.427,2.325007750515992
0.428,2.3284262942953733
0.429,2.331851240037175
0.430,2.3352825693390393
0.431,2.3387202636742823
0.432,2.3421643043915075
0.433,2.3456146727142224
0.434,2.3490713497404623
0.435,2.3525343164424157
0.436,2.3560035536660564
0.437,2.359479042130779
0.438,2.3629607624290414
0.439,2.366448695026009
0.440,2.3699428202592063
0.441,2.3734431183381752
0.442,2.376949569344134
0.443,2.3804621532296455
0.444,2.3839808498182897
0.445,2.387505638804342
0.446,2.391036499752455
0.447,2.394573412097351
0.448,2.3981163551435163
0.449,2.4016653080649006
0.450,2.4052202499046285
0.451,2.40878115957471
0.452,2.4123480158557626
0.453,2.4159207973967365
0.454,2.419499482714649
0.455,2.423084050194324
0.456,2.4266744780881373
0.457,2.430270744515772
0.458,2.433872827463977
0.459,2.4374807047863363
0.460,2.4410943542030425
0.461,2.4447137533006793
0.462,2.4483388795320105
0.463,2.4519697102157774
0.464,2.455606222536503
0.465,2.4592483935443052
0.466,2.4628962001547157
0.467,2.466549619148509
0.468,2.470208627171539
0.469,2.4738732007345825
0.470,2.477543316213193
0.471,2.48121894984756
0.472,2.484900077742381
0.473,2.4885866758667388
0.474,2.4922787200539878
0.475,2.495976186001651
0.476,2.499679049271325
0.477,2.503387285288592
0.478,2.5071008693429455
0.479,2.510819776587721
0.480,2.514543982040038
0.481,2.518273460580751
0.482,2.5220081869544124
0.483,2.5257481357692395
0.484,2.5294932814970985
0.485,2.533243598473492
0.486,2.5369990608975606
0.487,2.540759642832094
0.488,2.544525318203551
0.489,2.5482960608020897
0.490,2.5520718442816097
0.491,2.5558526421598042
0.492,2.559638427818223
0.493,2.5634291745023456
0.494,2.5672248553216646
0.495,2.5710254432497814
0.496,2.5748309111245122
0.497,2.5786412316480063
0.498,2.5824563773868725
0.499,2.586276320772321
0.500,2.590101034100313
0.501,2.5939304895317243
0.502,2.597764659092519
0.503,2.601603514673936
0.504,2.605447028032685
0.505,2.609295170791159
0.506,2.6131479144376524
0.507,2.6170052303265963
0.508,2.620867089678804
0.509,2.624733463581727
0.510,2.6286043229897276
0.511,2.632479638724357
0.512,2.636359381474654
0.513,2.6402435217974505
0.514,2.6441320301176887
0.515,2.6480248767287566
0.516,2.651922031792831
0.517,2.655823465341235
0.518,2.659729147274809
0.519,2.6636390473642915
0.520,2.667553135250719
0.521,2.671471380445831
0.522,2.675393752332495
0.523,2.679320220165139
0.524,2.683250753070201
0.525,2.68718532004659
0.526,2.6911238899661605
0.527,2.6950664315741992
0.528,2.699012913489928
0.529,2.7029633042070165
0.530,2.70691757209411
0.531,2.7108756853953717
0.532,2.7148376122310354
0.533,2.7188033205979742
0.534,2.722772778370282
0.535,2.7267459532998686
0.536,2.730722813017067
0.537,2.7347033250312562
0.538,2.7386874567314963
0.539,2.7426751753871774
0.540,2.7466664481486824
0.541,2.750661242048063
0.542,2.7546595239997287
0.543,2.7586612608011514
0.544,2.7626664191335806
0.545,2.766674965562775
0.546,2.770686866539746
0.547,2.774702088401515
0.548,2.778720597371884
0.549,2.7827423595622203
0.550,2.7867673409722555
0.551,2.790795507490895
0.552,2.794826824897045
0.553,2.798861258860448
0.554,2.8028987749425363
0.555,2.806939338597297
0.556,2.81098291517215
0.557,2.8150294699088376
0.558,2.8190789679443315
0.559,2.8231313743117497
0.560,2.827186653941287
0.561,2.8312447716611597
0.562,2.835305692198561
0.563,2.839369380180633
0.564,2.8434358001354463
0.565,2.847504916492999
0.566,2.8515766935862223
0.567,2.8556510956520014
0.568,2.8597280868322095
0.569,2.8638076311747533
0.570,2.8678896926346313
0.571,2.8719742350750033
0.572,2.8760612222682744
0.573,2.8801506178971885
0.574,2.884242385555935
0.575,2.888336488751269
0.576,2.892432890903639
0.577,2.8965315553483317
0.578,2.900632445336623
0.579,2.904735524036945
0.580,2.908840754536062
0.581,2.912948099840258
0.582,2.917057522876534
0.583,2.9211689864938197
0.584,2.9252824534641935
0.585,2.9293978864841126
0.586,2.9335152481756555
0.587,2.9376345010877745
0.588,2.9417556076975577
0.589,2.945878530411501
0.590,2.950003231566791
0.591,2.954129673432597
0.592,2.9582578182113743
0.593,2.962387628040174
0.594,2.966519064991965
0.595,2.9706520910769627
0.596,2.974786668243969
0.597,2.9789227583817204
0.598,2.9830603233202435
0.599,2.9871993248322206
0.600,2.991339724634363
0.601,2.995481484388793
0.602,2.9996245657044316
0.603,3.0037689301383974
0.604,3.0079145391974116
0.605,3.0120613543392083
0.606,3.0162093369739553
0.607,3.0203584484656805
0.608,3.024508650133704
0.609,3.0286599032540797
0.610,3.0328121690610392
0.611,3.036965408748446
0.612,3.0411195834712537
0.613,3.0452746543469695
0.614,3.049430582457125
0.615,3.0535873288487494
0.616,3.057744854535853
0.617,3.0619031205009106
0.618,3.0660620876963507
0.619,3.0702217170460515
0.620,3.0743819694468404
0.621,3.078542805769995
0.622,3.082704186862751
0.623,3.086866073549814
0.624,3.09102842663487
0.625,3.095191206902107
0.626,3.09935437511773
0.627,3.1035178920314888
0.628,3.1076817183782
0.629,3.111845814879276
0.630,3.1160101422442534
0.631,3.1201746611723276
0.632,3.124339332353882
0.633,3.1285041164720258
0.634,3.132668974204127
0.635,3.136833866223351
0.636,3.140998753200197
0.637,3.1451635958040356
0.638,3.149328354704647
0.639,3.1534929905737594
0.640,3.1576574640865847
0.641,3.1618217359233585
0.642,3.165985766770874
0.643,3.1701495173240195
0.644,3.174312948287312
0.645,3.178476020376429
0.646,3.1826386943197416
0.647,3.1868009308598433
0.648,3.1909626907550774
0.649,3.1951239347810616
0.650,3.199284623732211
0.651,3.203444718423257
0.652,3.207604179690766
0.653,3.211762968394651
0.654,3.215921045419681
0.655,3.2200783716769905
0.656,3.224234908105579
0.657,3.2283906156738094
0.658,3.232545455380905
0.659,3.2366993882584354
0.660,3.2408523753718033
0.661,3.245004377821723
0.662,3.249155356745696
0.663,3.2533052733194796
0.664,3.25745408875855
0.665,3.2616017643195603
0.666,3.265748261301792
0.667,3.2698935410486003
0.668,3.2740375649488533
0.669,3.2781802944383642
0.670,3.2823216910013158
0.671,3.2864617161716803
0.672,3.2906003315346295
0.673,3.294737498727939
0.674,3.2988731794433837
0.675,3.3030073354281266
0.676,3.3071399284860994
0.677,3.311270920479373
0.678,3.3154002733295242
0.679,3.3195279490189877
0.680,3.3236539095924047
0.681,3.32777811715796
0.682,3.3319005338887107
0.683,3.3360211220239053
0.684,3.3401398438702947
0.685,3.344256661803431
0.686,3.348371538268959
0.687,3.3524844357838988
0.688,3.3565953169379137
0.689,3.3607041443945738
0.690,3.364810880892604
0.691,3.3689154892471262
0.692,3.3730179323508866
0.693,3.3771181731754765
0.694,3.381216174772539
0.695,3.385311900274965
0.696,3.3894053128980812
0.697,3.3934963759408223
0.698,3.397585052786895
0.699,3.4016713069059303
0.700,3.405755101854622
0.701,3.4098364012778566
0.702,3.4139151689098277
0.703,3.417991368575143
0.704,3.422064964189915
0.705,3.4261359197628414
0.706,3.4302041993962744
0.707,3.4342697672872755
0.708,3.438332587728659
0.709,3.442392625110023
0.710,3.446449843918768
0.711,3.4505042087411013
0.712,3.4545556842630316
0.713,3.458604235271348
0.714,3.462649826654587
0.715,3.466692423403987
0.716,3.4707319906144307
0.717,3.474768493485371
0.718,3.4788018973217474
0.719,3.482832167534888
0.720,3.4868592696433973
0.721,3.4908831692740323
0.722,3.4949038321625636
0.723,3.498921224154625
0.724,3.5029353112065476
0.725,3.5069460593861828
0.726,3.5109534348737097
0.727,3.5149574039624305
0.728,3.518957933059551
0.729,3.5229549886869496
0.730,3.5269485374819305
0.731,3.530938546197965
0.732,3.534924981705418
0.733,3.5389078109922614
0.734,3.542887001164775
0.735,3.5468625194482315
0.736,3.55083433318757
0.737,3.5548024098480546
0.738,3.5587667170159203
0.739,3.5627272223990043
0.740,3.5666838938273644
0.741,3.5706366992538845
0.742,3.574585606754865
0.743,3.5785305845306006
0.744,3.5824716009059454
0.745,3.586408624330862
0.746,3.59034162338096
0.747,3.5942705667580195
0.748,3.598195423290501
0.749,3.6021161619340436
0.750,3.6060327517719486
0.751,3.6099451620156486
0.752,3.613853362005167
0.753,3.61775732120956
0.754,3.6216570092273495
0.755,3.6255523957869396
0.756,3.629443450747022
0.757,3.6333301440969685
0.758,3.6372124459572084
0.759,3.6410903265795964
0.760,3.6449637563477646
0.761,3.6488327057774637
0.762,3.652697145516891
0.763,3.6565570463470047
0.764,3.6604123791818286
0.765,3.66426311506874
0.766,3.6681092251887493
0.767,3.671950680856765
0.768,3.675787453521847
0.769,3.6796195147674475
0.770,3.683446836311641
0.771,3.687269390007339
0.772,3.6910871478424987
0.773,3.694900081940313
0.774,3.6987081645593936
0.775,3.7025113680939405
0.776,3.706309665073901
0.777,3.7101030281651144
0.778,3.7138914301694497
0.779,3.7176748440249283
0.780,3.721453242805837
0.781,3.7252265997228298
0.782,3.7289948881230184
0.783,3.7327580814900525
0.784,3.736516153444188
0.785,3.740269077742345
0.786,3.744016828278157
0.787,3.7477593790820047
0.788,3.7514967043210463
0.789,3.7552287782992306
0.790,3.758955575457305
0.791,3.7626770703728103
0.792,3.7663932377600666
0.793,3.77010405247015
0.794,3.7738094894908567
0.795,3.7775095239466627
0.796,3.7812041310986677
0.797,3.7848932863445333
0.798,3.7885769652184114
0.799,3.7922551433908622
0.800,3.795927796668764
0.801,3.799594900995214
0.802,3.8032564324494182
0.803,3.806912367246577
0.804,3.8105626817377556
0.805,3.814207352409752
0.806,3.817846355884953
0.807,3.8214796689211807
0.808,3.8251072684115366
0.809,3.8287291313842293
0.810,3.8323452350024017
0.811,3.8359555565639445
