time,theta
0.000,1.5707963267948966
0.001,1.5708005267708967
0.002,1.5708131266028982
0.003,1.5708341261469037
0.004,1.5708635252589154
0.005,1.5709013237949314
0.006,1.5709475216109416
0.007,1.571002118562921
0.008,1.571065114506822
0.009,1.5711365092985659
0.010,1.571216302794033
0.011,1.5713044948490502
0.012,1.5714010853193792
0.013,1.5715060740607005
0.014,1.5716194609285998
0.015,1.5717412457785493
0.016,1.5718714284658901
0.017,1.5720100088458122
0.018,1.5721569867733336
0.019,1.5723123621032773
0.020,1.5724761346902485
0.021,1.572648304388608
0.022,1.5728288710524467
0.023,1.5730178345355577
0.024,1.573215194691406
0.025,1.5734209513730988
0.026,1.5736351044333532
0.027,1.5738576537244628
0.028,1.574088599098263
0.029,1.5743279404060946
0.030,1.574575677498767
0.031,1.5748318102265184
0.032,1.575096338438977
0.033,1.5753692619851176
0.034,1.5756505807132208
0.035,1.575940294470827
0.036,1.5762384031046912
0.037,1.5765449064607369
0.038,1.5768598043840065
0.039,1.5771830967186127
0.040,1.5775147833076861
0.041,1.5778548639933239
0.042,1.5782033386165355
0.043,1.5785602070171878
0.044,1.5789254690339483
0.045,1.579299124504227
0.046,1.5796811732641174
0.047,1.5800716151483363
0.048,1.5804704499901612
0.049,1.580877677621367
0.050,1.5812932978721617
0.051,1.5817173105711198
0.052,1.5821497155451152
0.053,1.5825905126192525
0.054,1.5830397016167965
0.055,1.5834972823591011
0.056,1.583963254665536
0.057,1.5844376183534123
0.058,1.584920373237908
0.059,1.5854115191319895
0.060,1.5859110558463343
0.061,1.5864189831892508
0.062,1.5869353009665976
0.063,1.587460008981701
0.064,1.5879931070352709
0.065,1.5885345949253156
0.066,1.589084472447056
0.067,1.5896427393928374
0.068,1.5902093955520396
0.069,1.5907844407109868
0.070,1.591367874652856
0.071,1.5919596971575827
0.072,1.5925599080017674
0.073,1.5931685069585786
0.074,1.5937854937976557
0.075,1.59441086828501
0.076,1.5950446301829249
0.077,1.5956867792498541
0.078,1.5963373152403189
0.079,1.5969962379048035
0.080,1.59766354698965
0.081,1.5983392422369513
0.082,1.599023323384442
0.083,1.5997157901653893
0.084,1.6004166423084825
0.085,1.6011258795377188
0.086,1.6018435015722914
0.087,1.6025695081264733
0.088,1.6033038989095003
0.089,1.6040466736254544
0.090,1.6047978319731433
0.091,1.6055573736459805
0.092,1.6063252983318625
0.093,1.6071016057130463
0.094,1.607886295466024
0.095,1.6086793672613968
0.096,1.6094808207637474
0.097,1.6102906556315113
0.098,1.6111088715168467
0.099,1.6119354680655023
0.100,1.6127704449166846
0.101,1.6136138017029238
0.102,1.6144655380499378
0.103,1.6153256535764948
0.104,1.6161941478942754
0.105,1.6170710206077321
0.106,1.6179562713139486
0.107,1.618849899602497
0.108,1.6197519050552935
0.109,1.6206622872464536
0.110,1.6215810457421447
0.111,1.6225081801004384
0.112,1.623443689871161
0.113,1.6243875745957426
0.114,1.6253398338070644
0.115,1.6263004670293055
0.116,1.6272694737777882
0.117,1.6282468535588208
0.118,1.62923260586954
0.119,1.6302267301977524
0.120,1.6312292260217731
0.121,1.632240092810264
0.122,1.633259330022071
0.123,1.6342869371060587
0.124,1.6353229135009444
0.125,1.6363672586351306
0.126,1.6374199719265365
0.127,1.6384810527824274
0.128,1.639550500599243
0.129,1.6406283147624245
0.130,1.64171449464624
0.131,1.6428090396136092
0.132,1.6439119490159253
0.133,1.645023222192877
0.134,1.6461428584722688
0.135,1.6472708571698385
0.136,1.6484072175890754
0.137,1.6495519390210356
0.138,1.6507050207441565
0.139,1.6518664620240702
0.140,1.653036262113414
0.141,1.654214420251642
0.142,1.6554009356648327
0.143,1.6565958075654972
0.144,1.6577990351523846
0.145,1.6590106176102868
0.146,1.6602305541098417
0.147,1.661458843807335
0.148,1.6626954858445002
0.149,1.6639404793483181
0.150,1.6651938234308135
0.151,1.666455517188852
0.152,1.6677255597039344
0.153,1.6690039500419898
0.154,1.6702906872531678
0.155,1.6715857703716284
0.156,1.6728891984153316
0.157,1.6742009703858245
0.158,1.6755210852680276
0.159,1.6768495420300191
0.160,1.6781863396228194
0.161,1.6795314769801712
0.162,1.6808849530183214
0.163,1.6822467666357992
0.164,1.6836169167131942
0.165,1.684995402112932
0.166,1.6863822216790494
0.167,1.6877773742369668
0.168,1.6891808585932613
0.169,1.6905926735354355
0.170,1.6920128178316878
0.171,1.6934412902306786
0.172,1.6948780894612974
0.173,1.6963232142324265
0.174,1.6977766632327045
0.175,1.6992384351302878
0.176,1.700708528572611
0.177,1.7021869421861449
0.178,1.703673674576155
0.179,1.705168724326456
0.180,1.706672089999167
0.181,1.7081837701344638
0.182,1.7097037632503305
0.183,1.7112320678423096
0.184,1.7127686823832502
0.185,1.714313605323055
0.186,1.7158668350884256
0.187,1.717428370082607
0.188,1.7189982086851294
0.189,1.72057634925155
0.190,1.7221627901131917
0.191,1.723757529576882
0.192,1.7253605659246893
0.193,1.7269718974136572
0.194,1.7285915222755392
0.195,1.7302194387165302
0.196,1.7318556449169968
0.197,1.7335001390312073
0.198,1.7351529191870578
0.199,1.7368139834857999
0.200,1.7384833300017637
0.201,1.7401609567820822
0.202,1.7418468618464116
0.203,1.7435410431866518
0.204,1.7452434987666654
0.205,1.7469542265219937
0.206,1.7486732243595726
0.207,1.7504004901574464
0.208,1.7521360217644801
0.209,1.7538798170000707
0.210,1.7556318736538554
0.211,1.7573921894854208
0.212,1.7591607622240075
0.213,1.7609375895682162
0.214,1.7627226691857099
0.215,1.7645159987129155
0.216,1.766317575754725
0.217,1.7681273978841918
0.218,1.76994546264223
0.219,1.7717717675373077
0.220,1.773606310045142
0.221,1.775449087608391
0.222,1.7773000976363444
0.223,1.7791593375046122
0.224,1.7810268045548125
0.225,1.7829024960942579
0.226,1.7847864093956392
0.227,1.7866785416967084
0.228,1.78857889019996
0.229,1.7904874520723106
0.230,1.7924042244447769
0.231,1.794329204412152
0.232,1.7962623890326805
0.233,1.7982037753277318
0.234,1.8001533602814714
0.235,1.8021111408405315
0.236,1.8040771139136789
0.237,1.8060512763714824
0.238,1.8080336250459779
0.239,1.8100241567303317
0.240,1.812022868178503
0.241,1.8140297561049046
0.242,1.8160448171840609
0.243,1.8180680480502656
0.244,1.8200994452972374
0.245,1.8221390054777742
0.246,1.8241867251034047
0.247,1.8262426006440398
0.248,1.8283066285276215
0.249,1.8303788051397707
0.250,1.8324591268234325
0.251,1.834547589878521
0.252,1.8366441905615618
0.253,1.8387489250853328
0.254,1.8408617896185038
0.255,1.842982780285274
0.256,1.8451118931650088
0.257,1.847249124291873
0.258,1.8493944696544646
0.259,1.851547925195446
0.260,1.8537094868111734
0.261,1.8558791503513243
0.262,1.8580569116185246
0.263,1.8602427663679726
0.264,1.8624367103070623
0.265,1.8646387390950048
0.266,1.8668488483424481
0.267,1.869067033611095
0.268,1.87129329041332
0.269,1.8735276142117834
0.270,1.8757700004190452
0.271,1.8780204443971762
0.272,1.8802789414573686
0.273,1.8825454868595435
0.274,1.8848200758119578
0.275,1.8871027034708097
0.276,1.8893933649398416
0.277,1.8916920552699419
0.278,1.8939987694587455
0.279,1.8963135024502318
0.280,1.8986362491343223
0.281,1.9009670043464753
0.282,1.9033057628672796
0.283,1.9056525194220468
0.284,1.9080072686804017
0.285,1.9103700052558712
0.286,1.912740723705471
0.287,1.9151194185292917
0.288,1.9175060841700826
0.289,1.9199007150128344
0.290,1.92230330538436
0.291,1.9247138495528728
0.292,1.927132341727566
0.293,1.9295587760581874
0.294,1.931993146634614
0.295,1.9344354474864258
0.296,1.936885672582476
0.297,1.9393438158304617
0.298,1.9418098710764917
0.299,1.9442838321046538
0.300,1.9467656926365788
0.301,1.9492554463310057
0.302,1.9517530867833421
0.303,1.9542586075252266
0.304,1.9567720020240864
0.305,1.9592932636826959
0.306,1.9618223858387318
0.307,1.964359361764329
0.308,1.9669041846656323
0.309,1.9694568476823495
0.310,1.9720173438873005
0.311,1.9745856662859669
0.312,1.9771618078160385
0.313,1.9797457613469598
0.314,1.9823375196794746
0.315,1.9849370755451685
0.316,1.987544421606011
0.317,1.9901595504538958
0.318,1.99278245461018
0.319,1.995413126525221
0.320,1.9980515585779137
0.321,2.000697743075224
0.322,2.003351672251725
0.323,2.006013338269126
0.324,2.008682733215806
0.325,2.0113598491063436
0.326,2.014044677881043
0.327,2.0167372114054642
0.328,2.0194374414699476
0.329,2.022145359789139
0.330,2.024860958001514
0.331,2.0275842276688993
0.332,2.0303151602759955
0.333,2.0330537472298964
0.334,2.0357999798596085
0.335,2.0385538494155693
0.336,2.0413153470691636
0.337,2.044084463912241
0.338,2.046861190956629
0.339,2.0496455191336485
0.340,2.0524374392936258
0.341,2.055236942205405
0.342,2.0580440185558597
0.343,2.060858658949402
0.344,2.0636808539074925
0.345,2.06651059386815
0.346,2.069347869185456
0.347,2.072192670129066
0.348,2.0750449868837113
0.349,2.0779048095487074
0.350,2.0807721281374567
0.351,2.083646932576954
0.352,2.08652921270729
0.353,2.0894189582811515
0.354,2.092316158963326
0.355,2.0952208043302027
0.356,2.0981328838692734
0.357,2.1010523869786333
0.358,2.10397930296648
0.359,2.1069136210506154
0.360,2.109855330357943
0.361,2.1128044199239673
0.362,2.1157608786922935
0.363,2.1187246955141243
0.364,2.12169585914776
0.365,2.1246743582580945
0.366,2.1276601814161142
0.367,2.130653317098396
0.368,2.133653753686604
0.369,2.1366614794669876
0.370,2.1396764826298793
0.371,2.1426987512691924
0.372,2.145728273381918
0.373,2.148765036867624
0.374,2.1518090295279526
0.375,2.154860239066119
0.376,2.15791865308641
0.377,2.160984259093682
0.378,2.1640570444928633
0.379,2.1671369965884506
0.380,2.170224102584011
0.381,2.1733183495816832
0.382,2.176419724581678
0.383,2.1795282144817807
0.384,2.1826438060768547
0.385,2.1857664860583443
0.386,2.1888962410137793
0.387,2.192033057426281
0.388,2.195176921674067
0.389,2.1983278200299594
0.390,2.2014857386608933
0.391,2.204650663627426
0.392,2.2078225808832466
0.393,2.2110014762746895
0.394,2.2141873355402457
0.395,2.2173801443100793
0.396,2.2205798881055414
0.397,2.223786552338688
0.398,2.2270001223118006
0.399,2.230220583216904
0.400,2.233447920135292
0.401,2.2366821180370473
0.402,2.2399231617805713
0.403,2.2431710361121096
0.404,2.2464257256652824
0.405,2.2496872149606166
0.406,2.252955488405079
0.407,2.2562305302916132
0.408,2.259512324798678
0.409,2.262800855989788
0.410,2.266096107813056
0.411,2.269398064100741
0.412,2.272706708568794
0.413,2.2760220248164114
0.414,2.279343996325586
0.415,2.282672606460666
0.416,2.2860078384679134
0.417,2.289349675475067
0.418,2.2926981004909073
0.419,2.296053096404826
0.420,2.2994146459863973
0.421,2.302782731884954
0.422,2.306157336629166
0.423,2.3095384426266223
0.424,2.3129260321634173
0.425,2.3163200874037404
0.426,2.3197205903894695
0.427,2.3231275230397674
0.428,2.326540867150684
0.429,2.3299606043947625
0.430,2.333386716320646
0.431,2.3368191843526938
0.432,2.3402579897905986
0.433,2.3437031138090094
0.434,2.3471545374571576
0.435,2.3506122416584905
0.436,2.3540762072103054
0.437,2.357546414783393
0.438,2.361022844921682
0.439,2.364505478041892
0.440,2.367994294433189
0.441,2.3714892742568456
0.442,2.3749903975459117
0.443,2.3784976442048826
0.444,2.3820109940093803
0.445,2.3855304266058357
0.446,2.3890559215111775
0.447,2.392587458112529
0.448,2.3961250156669074
0.449,2.3996685733009326
0.450,2.40321811001054
0.451,2.4067736046607
0.452,2.4103350359851445
0.453,2.4139023825860995
0.454,2.4174756229340235
0.455,2.4210547353673553
0.456,2.4246396980922644
0.457,2.428230489182412
0.458,2.431827086578718
0.459,2.4354294680891337
0.460,2.4390376113884233
0.461,2.442651494017953
0.462,2.446271093385486
0.463,2.4498963867649866
0.464,2.4535273512964313
0.465,2.4571639639856273
0.466,2.46080620170404
0.467,2.464454041188627
0.468,2.4681074590416827
0.469,2.471766431730688
0.470,2.4754309355881716
0.471,2.4791009468115752
0.472,2.482776441463133
0.473,2.486457395469756
0.474,2.4901437846229264
0.475,2.4938355845785996
0.476,2.4975327708571164
0.477,2.5012353188431256
0.478,2.504943203785512
0.479,2.5086564007973378
0.480,2.512374884855791
0.481,2.5160986308021442
0.482,2.5198276133417217
0.483,2.5235618070438792
0.484,2.5273011863419903
0.485,2.5310457255334446
0.486,2.5347953987796554
0.487,2.538550180106079
0.488,2.5423100434022396
0.489,2.546074962421772
0.490,2.5498449107824674
0.491,2.553619861966335
0.492,2.557399789319671
0.493,2.56118466605314
0.494,2.564974465241867
0.495,2.5687691598255404
0.496,2.572568722608525
0.497,2.5763731262599876
0.498,2.5801823433140334
0.499,2.5839963461698527
0.500,2.5878151070918802
0.501,2.591638598209966
0.502,2.5954667915195566
0.503,2.5992996588818893
0.504,2.603137172024197
0.505,2.6069793025399255
0.506,2.610826021888963
0.507,2.6146773013978812
0.508,2.6185331122601885
0.509,2.6223934255365946
0.510,2.626258212155289
0.511,2.6301274429122303
0.512,2.6340010884714493
0.513,2.6378791193653623
0.514,2.6417615059951
0.515,2.645648218630844
0.516,2.649539227412184
0.517,2.653434502348479
0.518,2.6573340133192365
0.519,2.661237730074503
0.520,2.6651456222352676
0.521,2.6690576592938786
0.522,2.6729738106144727
0.523,2.676894045433417
0.524,2.6808183328597646
0.525,2.6847466418757246
0.526,2.6886789413371424
0.527,2.6926151999739942
0.528,2.6965553863908975
0.529,2.70049946906763
0.530,2.704447416359666
0.531,2.708399196498724
0.532,2.7123547775933283
0.533,2.716314127629384
0.534,2.7202772144707645
0.535,2.724244005859914
0.536,2.7282144694184627
0.537,2.7321885726478543
0.538,2.73616628292999
0.539,2.7401475675278824
0.540,2.744132393586325
0.541,2.748120728132575
0.542,2.7521125380770486
0.543,2.756107790214032
0.544,2.760106451222403
0.545,2.7641084876663675
0.546,2.768113865996211
0.547,2.772122552549059
0.548,2.7761345135496573
0.549,2.78014971511116
0.550,2.7841681232359328
0.551,2.7881897038163723
0.552,2.7922144226357335
0.553,2.796242245368975
0.554,2.800273137583615
0.555,2.8043070647406028
0.556,2.8083439921952005
0.557,2.8123838851978795
0.558,2.816426708895231
0.559,2.820472428330887
0.560,2.8245210084464567
0.561,2.8285724140824753
0.562,2.8326266099793638
0.563,2.8366835607784044
0.564,2.840743231022726
0.565,2.8448055851583045
0.566,2.848870587534974
0.567,2.852938202407451
0.568,2.8570083939363737
0.569,2.8610811261893474
0.570,2.8651563631420083
0.571,2.8692340686790963
0.572,2.8733142065955413
0.573,2.8773967405975593
0.574,2.8814816343037637
0.575,2.8855688512462843
0.576,2.889658354871902
0.577,2.893750108543192
0.578,2.89784407553968
0.579,2.901940219059009
0.580,2.9060385022181174
0.581,2.9101388880544286
0.582,2.9142413395270506
0.583,2.9183458195179877
0.584,2.9224522908333617
0.585,2.9265607162046443
0.586,2.9306710582898994
0.587,2.934783279675036
0.588,2.9388973428750704
0.589,2.943013210335401
0.590,2.9471308444330893
0.591,2.9512502074781524
0.592,2.955371261714865
0.593,2.95949396932307
0.594,2.963618292419501
0.595,2.967744193059108
0.596,2.971871633236399
0.597,2.976000574886785
0.598,2.9801309798879347
0.599,2.98426281006114
0.600,2.988396027172687
0.601,2.9925305929352346
0.602,2.9966664690092033
0.603,3.0008036170041703
0.604,3.0049419984802714
0.605,3.009081574949611
0.606,3.013222307877679
0.607,3.0173641586847744
0.608,3.021507088747434
0.609,3.025651059399872
0.610,3.0297960319354202
0.611,3.033941967607978
0.612,3.0380888276334677
0.613,3.042236573191293
0.614,3.0463851654258067
0.615,3.050534565447781
0.616,3.054684734335883
0.617,3.0588356331381568
0.618,3.062987222873506
0.619,3.067139464533187
0.620,3.0712923190823
0.621,3.0754457474612873
0.622,3.0795997105874355
0.623,3.0837541693563804
0.624,3.0879090846436137
0.625,3.0920644173059957
0.626,3.096220128183268
0.627,3.1003761780995718
0.628,3.104532527864964
0.629,3.1086891382769406
0.630,3.112845970121959
0.631,3.1170029841769615
0.632,3.1211601412109036
0.633,3.125317401986279
0.634,3.129474727260648
0.635,3.1336320777881683
0.636,3.137789414321123
0.637,3.14194669761145
0.638,3.146103888412273
0.639,3.150260947479431
0.640,3.1544178355730077
0.641,3.1585745134588588
0.642,3.1627309419101413
0.643,3.16688708170884
0.644,3.1710428936472934
0.645,3.1751983385297153
0.646,3.1793533771737197
0.647,3.18350797041184
0.648,3.1876620790930454
0.649,3.191815664084259
0.650,3.195968686271869
0.651,3.200121106563237
0.652,3.2042728858882095
0.653,3.2084239852006156
0.654,3.2125743654797714
0.655,3.2167239877319735
0.656,3.220872812991992
0.657,3.2250208023245572
0.658,3.2291679168258454
0.659,3.2333141176249547
0.660,3.237459365885381
0.661,3.241603622806486
0.662,3.2457468496249597
0.663,3.2498890076162805
0.664,3.254030058096166
0.665,3.258169962422019
0.666,3.262308681994369
0.667,3.266446178258305
0.668,3.2705824127049037
0.669,3.274717346872649
0.670,3.278850942348847
0.671,3.2829831607710327
0.672,3.2871139638283675
0.673,3.2912433132630334
0.674,3.2953711708716154
0.675,3.299497498506479
0.676,3.3036222580771377
0.677,3.307745411551613
0.678,3.311866920957787
0.679,3.3159867483847445
0.680,3.3201048559841073
0.681,3.324221205971361
0.682,3.3283357606271693
0.683,3.332448482298682
0.684,3.3365593334008343
0.685,3.340668276417632
0.686,3.3447752739034313
0.687,3.3488802884842084
0.688,3.352983282858816
0.689,3.357084219800233
0.690,3.361183062156802
0.691,3.365279772853457
0.692,3.3693743148929407
0.693,3.3734666513570097
0.694,3.3775567454076314
0.695,3.381644560288167
0.696,3.385730059324546
0.697,3.3898132059264268
0.698,3.393893963588349
0.699,3.3979722958908716
0.700,3.402048166501701
0.701,3.4061215391768074
0.702,3.4101923777615273
0.703,3.4142606461916576
0.704,3.418326308494535
0.705,3.422389328790104
0.706,3.426449671291974
0.707,3.4305073003084607
0.708,3.4345621802436206
0.709,3.4386142755982663
0.710,3.4426635509709755
0.711,3.4467099710590836
0.712,3.4507535006596646
0.713,3.4547941046704995
0.714,3.458831748091032
0.715,3.4628663960233115
0.716,3.4668980136729206
0.717,3.470926566349894
0.718,3.4749520194696215
0.719,3.4789743385537375
0.720,3.482993489230999
0.721,3.487009437238149
0.722,3.491022148420768
0.723,3.495031588734112
0.724,3.4990377242439354
0.725,3.503040521127302
0.726,3.507039945673384
0.727,3.5110359642842432
0.728,3.5150285434756054
0.729,3.5190176498776147
0.730,3.5230032502355777
0.731,3.526985311410695
0.732,3.5309638003807766
0.733,3.534938684240946
0.734,3.53890993020433
0.735,3.5428775056027337
0.736,3.5468413778873056
0.737,3.5508015146291845
0.738,3.554757883520137
0.739,3.558710452373179
0.740,3.5626591891231842
0.741,3.566604061827481
0.742,3.5705450386664324
0.743,3.5744820879440073
0.744,3.5784151780883326
0.745,3.5823442776522376
0.746,3.5862693553137808
0.747,3.590190379876766
0.748,3.5941073202712435
0.749,3.5980201455540004
0.750,3.601928824909034
0.751,3.6058333276480155
0.752,3.6097336232107393
0.753,3.6136296811655586
0.754,3.617521471209809
0.755,3.6214089631702184
0.756,3.6252921270033047
0.757,3.6291709327957604
0.758,3.633045350764824
0.759,3.6369153512586383
0.760,3.6407809047565984
0.761,3.644641981869684
0.762,3.64849855334078
0.763,3.652350590044987
0.764,3.6561980629899162
0.765,3.660040943315974
0.766,3.663879202296633
0.767,3.6677128113386908
0.768,3.671541741982519
0.769,3.6753659659022975
0.770,3.679185454906238
0.771,3.6830001809367947
0.772,3.6868101160708653
0.773,3.6906152325199777
0.774,3.6944155026304673
0.775,3.69821089888364
0.776,3.702001393895927
0.777,3.705786960419027
0.778,3.7095675713400356
0.779,3.7133431996815647
0.780,3.7171138186018524
0.781,3.7208794013948587
0.782,3.7246399214903527
0.783,3.7283953524539886
0.784,3.732145667987369
0.785,3.7358908419281014
0.786,3.7396308482498406
0.787,3.7433656610623225
0.788,3.7470952546113865
0.789,3.7508196032789898
0.790,3.7545386815832087
0.791,3.758252464178232
0.792,3.761960925854344
0.793,3.7656640415378972
0.794,3.7693617862912756
0.795,3.7730541353128486
0.796,3.7767410639369157
0.797,3.7804225476336404
0.798,3.7840985620089764
0.799,3.7877690828045845
0.800,3.7914340858977393
0.801,3.7950935473012284
0.802,3.798747443163241
0.803,3.802395749767249
0.804,3.806038443531881
0.805,3.809675501010784
0.806,3.8133068988924794
0.807,3.8169326140002107
0.808,3.8205526232917815
0.809,3.824166903859387
0.810,3.8277754329294362
